129.04
129.46
128.6
130.4
130.58
132.86
134.14
134.58
135.66
132.02
132.3
130.94
132.08
132.48
131.4
130.26
130.74
131.34
132.58
135.64
135.42
134.14
135.84
136.68
135.2
135.8
135.9
137.62
137.22
137.36
136.42
136.4
136.54
134.88
135.48
136.0
132.18
132.5
131.98
130.98
130.82
131.8
131.04
133.0
135.94
137.42
135.6
136.52
137.96
138.08
140.62
142.44
144.28
143.76
144.56
144.58
143.16
141.38
141.22
140.62
141.18
142.4
142.64
142.12
143.62
141.78
141.12
142.72
142.0
144.22
141.56
141.84
151.0
150.5
150.04
148.46
149.96
148.8
149.44
147.18
146.52
148.04
150.04
149.6
151.6
149.7
151.24
148.68
149.28
148.98
149.36
150.02
151.0
155.62
155.94
155.76
154.72
153.12
154.22
152.8
154.02
152.38
152.74
152.42
152.7
151.54
147.58
148.44
148.42
145.9
148.46
149.04
149.96
149.62
149.62
148.42
149.22
147.16
147.64
147.78
150.62
149.08
152.22
153.9
153.06
154.86
154.1
155.76
153.42
153.9
156.68
157.62
157.42
161.18
160.84
161.0
161.24
164.4
162.4
160.68
155.4
152.1
154.68
152.54
157.88
157.12
152.56
156.12
155.32
153.0
144.38
148.9
150.54
144.56
141.14
142.7
144.74
146.76
145.74
146.34
145.56
148.0
146.5
142.56
146.78
147.0
146.7
147.26
145.94
147.62
142.2
142.74
145.1
149.0
150.02
147.68
147.34
151.4
154.76
150.32
150.0
149.18
150.34
151.2
152.32
151.1
153.82
152.5
152.56
153.74
157.06
154.9
156.36
156.52
156.28
158.12
155.96
157.14
155.4
150.74
148.3
148.94
149.56
149.02
146.88
147.08
148.16
145.68
149.48
145.92
146.56
144.94
147.46
140.96
143.26
138.54
136.98
137.2
136.16
134.72
133.58
130.86
132.5
130.82
133.0
132.0
132.0
137.28
136.82
137.28
136.86
136.14
137.54
138.0
140.56
141.7
137.08
139.22
141.0
138.8
136.0
138.9
137.38
139.62
143.44
143.6
143.72
141.2
140.86
140.46
137.2
135.66
133.32
134.0
130.44
130.06
130.22
126.4
129.16
124.5
123.14
125.28
124.12
123.02
127.86
127.56
126.0
129.0
129.08
127.78
130.74
134.38
132.84
128.68
129.3
128.68
128.74
129.6
130.14
131.14
128.38
127.7
130.48
127.38
128.0
128.76
132.0
131.52
130.36
127.76
123.96
125.34
122.56
123.48
121.3
117.14
115.0
119.46
119.64
121.14
118.02
116.0
119.88
116.8
118.08
121.1
122.12
119.56
119.16
118.56
121.02
125.08
126.26
126.92
129.62
127.58
127.74
126.54
127.4
126.36
125.42
126.06
131.84
129.5
132.82
130.72
129.52
126.54
127.34
129.68
126.84
124.66
122.74
124.82
125.7
126.48
126.66
125.52
126.22
124.16
126.0
127.22
129.9
131.24
132.48
129.36
129.18
126.82
127.34
124.94
124.44
126.72
126.82
126.06
124.96
122.8
123.72
126.22
122.46
121.76
120.7
120.0
119.52
123.94
123.72
123.18
121.36
121.94
119.94
121.2
118.18
118.16
114.4
114.3
114.74
115.02
111.3
111.26
111.3
112.6
109.34
110.86
110.84
110.28
111.58
114.16
122.08
121.56
121.94
123.22
124.36
122.0
120.96
119.18
120.52
123.34
121.28
118.28
116.62
121.0
123.92
122.58
126.68
128.74
128.5
126.86
126.36
129.14
128.5
126.18
126.86
124.98
124.9
122.68
123.48
123.84
127.02
125.72
130.58
133.46
131.08
130.18
131.7
129.22
129.76
133.34
135.54
133.26
134.7
133.0
134.62
133.94
129.6
124.44
119.48
122.32
122.88
115.3
116.64
115.84
111.38
110.22
109.34
101.32
101.94
94.54
92.6
101.98
100.54
88.98
102.18
96.34
101.0
99.32
93.4
92.7
90.22
87.76
95.7
95.74
98.4
99.16
100.06
103.04
96.44
89.34
93.62
92.1
91.74
88.38
96.76
90.76
88.22
88.7
82.38
73.96
77.04
83.38
85.06
87.78
87.84
79.18
83.6
86.18
84.14
87.0
91.62
88.98
89.5
85.22
87.78
87.1
91.9
89.0
85.4
82.92
79.42
77.86
77.66
78.78
77.66
80.94
84.86
87.1
86.56
90.06
86.28
88.38
86.62
85.16
83.4
80.54
82.82
82.86
79.2
80.92
78.58
78.42
77.7
78.26
81.82
78.76
75.16
74.98
74.0
72.94
75.32
78.24
78.52
74.78
74.72
73.84
72.42
68.76
68.18
66.86
65.34
62.16
64.96
63.96
62.88
62.12
60.08
59.6
61.84
56.96
58.84
59.0
65.38
65.82
68.68
66.0
65.88
67.94
69.98
70.2
69.42
74.0
73.18
73.76
77.42
73.6
73.74
73.8
78.94
84.1
89.12
88.54
85.6
85.74
89.94
90.26
88.26
88.88
92.22
90.58
86.38
87.28
88.16
86.9
90.92
88.06
86.48
88.24
88.1
88.04
93.0
91.54
91.86
87.46
89.44
87.08
87.38
83.78
84.82
84.4
88.16
89.32
91.0
88.06
89.26
90.04
87.62
88.18
88.94
92.08
91.26
89.2
90.0
90.08
88.58
91.04
90.5
90.9
90.26
87.96
86.14
86.48
85.88
85.64
83.32
83.02
85.94
87.68
87.14
87.72
87.8
87.56
84.3
86.04
83.24
83.64
84.22
83.88
87.14
88.26
92.2
98.54
99.12
100.9
100.86
101.5
104.94
105.12
105.62
105.1
103.76
108.82
110.0
113.64
114.08
114.22
112.32
112.4
110.18
110.3
111.06
111.8
109.16
105.94
105.9
106.86
106.3
109.1
108.3
108.58
107.48
110.38
111.88
110.8
108.16
107.86
108.22
109.78
110.78
112.92
113.98
114.6
115.82
118.82
119.78
118.56
119.3
119.38
120.24
118.1
117.04
115.3
117.52
117.48
116.42
113.12
112.52
115.08
116.06
115.74
118.44
119.5
120.22
121.28
123.06
124.16
122.6
123.94
122.42
119.34
121.36
118.68
116.42
118.0
114.5
116.82
112.86
114.98
115.96
115.32
118.38
117.6
121.74
121.94
122.36
120.46
120.72
122.86
122.52
121.02
118.96
118.5
121.06
119.7
121.34
118.66
118.86
119.82
121.1
119.18
120.76
120.66
117.68
118.88
118.08
117.02
119.38
117.62
118.56
116.62
115.56
116.46
117.74
118.6
119.14
119.58
118.72
118.52
117.08
121.2
121.28
123.18
123.74
123.5
123.36
121.66
122.94
125.58
124.1
128.46
126.26
118.2
119.84
122.16
119.94
119.02
118.02
117.36
119.04
119.88
118.42
115.46
116.68
115.36
118.32
119.5
120.46
120.72
122.84
123.62
124.22
124.96
124.14
122.9
124.2
122.12
123.08
124.76
125.2
125.88
125.82
126.58
127.1
125.86
127.4
126.58
128.32
128.98
129.28
131.8
129.48
129.86
130.96
132.1
130.86
129.38
132.14
131.52
132.1
130.8
133.0
133.84
135.2
134.9
135.86
137.36
137.78
138.66
139.02
139.46
138.32
140.4
140.82
140.98
140.5
142.54
141.44
137.92
139.84
142.48
140.74
142.56
136.94
134.94
129.5
127.58
134.18
132.86
135.28
133.56
130.18
132.24
131.26
128.72
123.12
125.38
123.06
124.44
123.72
130.18
128.14
125.08
129.46
127.92
123.58
121.04
124.26
123.82
126.64
129.56
128.14
131.16
133.08
132.32
133.32
133.62
131.08
130.2
126.22
125.9
125.78
122.0
120.82
122.1
121.14
121.12
126.14
128.5
129.24
127.56
130.66
129.04
129.2
124.92
124.3
129.28
129.6
132.0
135.3
136.4
137.6
137.68
137.64
138.94
142.24
140.04
141.76
140.5
139.1
139.54
138.68
134.1
133.7
132.62
133.02
135.48
134.5
131.18
130.8
130.02
128.42
130.28
130.64
134.2
130.96
131.46
136.32
137.84
139.96
136.56
138.2
138.62
141.54
143.28
142.68
143.26
144.46
144.1
145.32
144.38
144.16
142.9
145.84
145.56
146.28
145.8
145.6
146.18
144.48
148.0
149.52
149.1
150.42
150.0
151.0
152.48
152.66
153.54
153.76
151.54
154.92
153.34
152.86
154.66
154.6
153.54
153.2
153.4
153.34
155.28
155.78
158.26
159.34
158.18
156.52
156.04
156.22
153.56
153.72
151.16
152.16
155.1
154.76
154.7
151.84
155.58
155.26
155.6
155.92
159.72
160.38
161.6
159.9
160.9
159.68
160.1
161.8
160.92
162.66
164.2
162.92
164.02
164.72
164.96
165.28
165.6
166.04
167.7
168.42
167.7
168.14
169.38
166.86
167.8
167.2
164.64
165.16
164.06
166.02
165.08
166.28
166.38
165.58
162.72
164.3
166.62
167.16
169.58
167.84
166.46
168.56
172.02
170.3
171.2
171.7
172.18
173.46
172.98
175.04
176.76
176.98
176.7
177.4
178.9
180.28
174.12
173.1
171.9
174.86
176.76
175.48
176.02
179.48
177.14
175.04
177.66
176.1
172.9
175.0
175.68
173.6
171.04
174.32
174.92
177.12
176.18
176.56
177.36
178.88
178.76
181.18
191.86
190.42
190.2
192.98
192.7
192.82
192.14
190.68
189.88
187.52
184.54
184.98
185.3
182.78
186.28
189.08
189.28
186.86
187.94
187.2
188.28
189.34
188.26
184.2
180.78
180.48
180.78
182.56
183.56
179.98
179.42
176.94
177.24
174.84
178.16
177.86
176.1
173.32
171.86
174.66
174.2
175.6
177.4
173.52
172.34
169.86
168.2
171.36
168.9
170.52
168.22
167.68
171.0
167.94
168.22
169.5
170.86
175.46
175.48
174.02
174.32
173.92
176.92
178.28
181.58
183.7
182.98
185.02
186.74
184.24
180.54
179.7
179.86
176.9
179.34
177.42
178.48
178.7
179.96
177.88
177.1
173.18
170.0
169.1
168.4
167.8
163.44
165.28
155.36
155.76
145.9
154.62
146.12
149.82
150.12
153.24
150.4
150.6
140.82
137.76
137.88
142.28
143.78
142.16
144.68
150.98
152.96
153.18
150.06
147.14
146.4
150.02
149.68
146.2
146.24
149.38
152.0
154.84
157.28
155.44
155.04
147.08
140.2
137.64
144.88
149.04
143.0
144.7
141.32
137.36
141.34
145.52
147.42
146.96
152.88
152.42
155.52
155.34
159.42
155.68
161.46
157.68
161.36
167.36
168.8
165.06
169.72
173.66
178.74
172.82
169.2
173.4
177.32
177.02
177.8
178.76
170.84
172.44
176.22
174.58
174.7
169.86
165.42
167.2
163.66
162.54
159.14
158.9
165.1
166.28
175.5
173.1
169.74
170.34
170.88
169.34
165.26
167.88
165.04
162.72
160.4
160.24
161.74
158.26
161.56
164.32
164.72
167.02
167.92
165.58
167.98
166.98
170.24
170.6
169.08
169.52
168.66
172.28
173.2
176.0
175.04
176.08
179.8
175.52
177.84
176.66
177.0
178.84
177.66
178.12
178.94
179.16
181.72
179.6
182.44
181.76
182.54
183.22
184.06
181.66
182.16
181.04
179.88
182.8
184.24
183.94
183.6
184.4
183.34
185.88
185.86
182.5
185.32
185.0
183.24
180.82
181.1
185.88
185.54
186.18
188.62
187.36
187.28
187.18
188.92
187.86
188.28
185.92
187.3
190.82
191.48
189.56
191.38
191.6
195.36
191.36
187.84
192.58
188.5
184.18
189.08
193.66
191.44
193.8
196.68
196.94
202.0
202.58
202.02
204.0
208.34
210.44
211.32
210.48
214.08
214.38
214.4
211.34
213.8
213.02
211.88
211.46
210.38
206.24
204.36
203.5
197.7
195.12
199.08
198.52
201.6
208.4
206.36
210.2
204.52
206.88
197.92
195.54
197.98
203.62
205.16
207.36
203.92
208.3
203.82
203.52
208.28
209.56
212.36
212.08
204.84
208.38
202.66
205.68
206.96
207.0
212.24
209.4
209.76
210.98
211.14
206.74
204.28
201.76
201.32
206.68
204.26
208.26
208.38
223.92
227.7
221.5
217.12
214.98
216.46
220.84
221.98
218.92
216.12
215.28
218.4
219.8
223.04
222.22
222.74
221.64
220.28
216.96
218.86
220.08
220.5
218.32
214.94
222.1
217.98
218.3
218.76
217.78
219.42
216.98
220.04
216.34
217.54
226.0
226.28
231.58
231.74
231.54
237.16
237.68
237.0
234.9
234.48
236.74
235.18
233.62
230.06
229.2
230.46
229.68
231.1
229.26
233.22
234.04
235.88
235.44
231.42
230.72
230.92
228.46
232.28
235.64
237.94
238.18
235.46
235.4
231.08
234.34
232.04
232.24
234.16
243.6
239.84
243.56
246.38
241.28
235.22
234.76
234.94
234.9
232.62
230.5
231.24
240.1
243.1
243.5
246.74
246.02
244.78
243.8
245.28
248.54
241.88
240.62
238.92
246.42
242.74
247.68
250.08
249.1
250.42
259.86
260.4
264.94
262.42
268.78
266.52
270.48
269.48
266.24
265.4
270.7
277.1
275.5
278.94
276.52
280.46
282.8
283.54
284.2
282.06
280.28
278.26
283.96
285.46
285.54
286.82
287.96
288.42
280.0
282.12
280.46
275.74
281.12
277.88
276.74
276.66
275.94
277.76
278.7
272.9
278.22
278.0
278.78
271.42
263.02
260.16
264.64
260.6
265.36
269.32
269.32
269.62
271.18
272.44
270.9
270.94
274.68
275.56
278.28
283.04
284.46
282.6
282.2
281.74
282.02
274.58
271.94
267.78
268.08
266.84
267.88
268.32
267.38
265.44
267.8
263.46
262.9
265.3
269.32
275.22
272.5
262.88
269.1
264.8
281.3
283.18
287.1
289.6
289.96
293.82
289.86
294.04
294.28
290.4
296.96
304.56
303.52
306.44
310.28
307.84
308.26
306.42
313.62
312.94
311.1
317.68
314.12
317.88
315.1
313.72
313.66
314.66
314.2
312.62
307.22
310.28
307.12
299.98
302.54
309.84
308.54
303.8
301.9
310.54
307.66
312.22
313.14
308.34
300.16
297.8
293.36
295.66
298.0
298.06
292.82
296.88
298.16
299.18
304.84
306.46
313.06
312.08
316.06
315.46
313.98
309.68
313.72
320.0
318.32
319.46
318.26
314.16
317.46
314.22
322.34
322.1
320.88
325.52
324.72
323.78
322.84
322.18
323.66
323.38
322.68
325.52
324.74
317.54
317.18
313.62
317.94
318.22
320.3
324.48
320.54
315.52
311.52
312.38
312.42
314.42
317.88
321.14
318.5
323.28
327.42
328.84
325.74
324.88
330.4
330.72
335.62
335.98
332.56
326.84
326.94
329.28
333.3
330.54
334.12
333.62
333.28
332.98
341.8
335.82
325.62
324.96
329.46
333.5
332.26
330.96
332.44
87.24
87.88
88.3
90.06
89.22
89.73
90.96
90.44
92.76
90.83
91.29
91.38
91.73
91.66
91.4
89.82
90.78
91.08
91.26
92.31
92.79
92.45
92.32
92.38
91.1
91.66
91.89
92.1
92.56
92.27
92.03
91.83
90.83
91.48
90.89
93.92
93.36
93.68
91.18
91.96
91.46
91.2
91.8
92.62
92.65
93.31
92.75
93.79
94.04
93.89
94.24
94.83
94.47
94.7
93.76
94.14
94.74
95.06
95.29
93.88
95.44
95.35
93.84
94.74
95.0
93.58
93.44
90.8
91.6
91.22
91.6
92.34
91.18
88.44
88.62
88.61
89.46
91.27
91.96
92.58
92.88
93.62
94.45
93.3
93.53
94.38
94.94
94.26
95.38
96.56
96.84
98.91
98.53
100.1
99.77
100.07
100.04
100.15
98.76
98.6
97.46
97.29
97.98
98.98
97.58
97.37
97.56
96.6
96.44
95.2
94.76
95.4
96.73
98.32
98.63
98.68
98.88
96.54
96.25
97.84
94.98
93.91
94.28
94.26
95.82
99.73
98.27
98.18
98.15
97.26
96.49
95.74
96.5
96.81
96.32
97.59
97.94
97.74
99.37
98.14
98.31
99.7
98.86
98.28
97.32
97.68
98.02
97.84
98.58
98.18
99.43
99.06
100.12
100.5
100.8
101.16
100.86
101.93
101.58
102.46
102.56
102.9
102.8
101.79
102.14
101.51
101.26
101.8
101.61
102.28
102.18
101.52
102.24
101.29
102.02
105.08
104.43
104.16
105.08
104.19
103.4
103.91
103.7
104.02
104.0
102.78
102.9
103.85
104.78
104.38
105.06
105.16
105.01
104.44
104.34
102.5
102.22
99.18
99.2
100.31
99.1
99.44
98.66
100.11
99.59
99.76
101.0
100.78
101.14
101.88
102.32
102.04
102.54
102.28
103.12
103.23
102.62
102.72
102.93
102.6
101.76
101.81
101.98
101.96
100.73
101.23
100.71
99.84
99.86
100.26
100.92
101.58
101.4
99.84
99.14
100.27
98.7
99.22
99.73
98.37
95.58
95.58
95.92
95.64
93.21
94.76
93.02
91.78
88.3
88.79
90.25
90.92
93.62
95.59
98.02
96.86
97.45
97.92
96.3
97.7
96.02
96.18
101.84
100.18
99.24
102.62
103.04
103.45
103.14
102.63
101.95
102.62
101.95
102.66
104.25
105.33
106.33
107.68
107.78
107.7
108.48
109.41
109.94
109.56
111.63
111.86
111.42
111.42
112.84
110.42
111.3
109.91
109.06
108.33
111.13
113.5
113.95
114.8
115.54
115.56
115.8
116.23
115.83
115.58
114.7
111.74
111.46
111.96
114.94
113.48
113.12
113.5
113.48
113.1
115.19
114.08
114.02
115.68
113.9
113.91
112.98
110.87
112.86
111.44
111.86
113.45
113.72
115.18
115.43
113.41
114.12
114.11
116.52
118.38
117.92
118.12
117.75
118.32
118.24
118.38
117.84
117.92
117.69
118.85
117.27
117.67
117.72
115.98
116.14
113.84
112.59
114.85
113.96
115.04
113.63
114.82
113.08
114.53
113.22
112.74
111.23
110.65
111.48
112.24
112.77
112.23
111.79
112.11
112.45
113.06
114.17
114.75
114.8
113.98
113.64
113.38
113.3
113.84
113.52
113.2
112.94
111.66
110.42
110.38
111.08
110.78
112.28
112.52
110.79
111.02
112.46
114.52
113.66
112.24
112.7
114.4
115.85
115.46
115.0
114.46
114.62
114.6
113.36
114.57
114.91
114.44
114.52
114.12
115.0
114.38
114.32
114.05
114.62
115.94
117.0
116.62
115.43
116.0
116.67
117.81
117.3
118.17
118.29
117.97
117.74
118.01
114.98
114.72
116.5
115.91
115.1
115.06
113.1
112.64
114.9
116.53
117.61
116.98
111.82
111.8
110.85
108.21
108.09
105.63
103.25
102.39
106.92
108.57
108.52
108.38
107.87
106.54
106.59
105.21
103.92
106.61
104.41
104.03
103.52
104.7
104.26
104.57
102.5
99.87
97.21
92.26
91.05
93.1
95.19
96.11
95.29
91.35
93.53
93.98
93.31
96.4
96.1
96.64
96.72
94.16
94.28
95.07
94.46
93.19
93.45
91.62
89.94
88.11
88.34
84.51
85.95
87.69
90.13
92.66
94.59
93.4
94.31
95.77
95.97
97.34
97.18
97.32
99.26
100.74
101.18
101.38
100.64
103.62
103.99
103.93
102.93
104.33
104.28
104.26
104.0
104.19
103.86
103.21
103.0
101.73
101.12
101.61
99.21
100.83
101.95
101.71
104.23
103.37
104.62
105.47
105.49
106.46
106.21
105.74
106.76
105.34
104.3
105.96
104.99
102.75
101.55
100.88
98.73
97.73
98.55
100.22
98.24
96.29
97.23
98.76
100.24
100.39
99.9
100.58
99.77
98.82
97.96
98.31
96.47
95.25
94.49
94.45
95.12
93.05
93.57
91.9
91.6
93.52
91.92
93.16
91.11
92.58
92.8
92.09
95.12
95.59
93.04
95.11
95.7
92.87
89.65
90.99
91.34
89.27
91.78
93.62
95.0
94.69
95.63
96.72
94.87
95.68
97.01
98.16
96.53
99.58
99.33
100.3
102.49
103.37
101.51
102.28
102.91
105.01
104.74
104.76
106.61
109.4
108.9
108.89
109.84
109.14
108.95
109.4
110.57
111.9
111.49
113.11
112.19
111.43
112.08
110.61
111.83
111.68
112.94
114.23
114.51
115.35
115.75
116.55
116.07
110.26
113.19
112.6
113.55
112.99
112.77
110.39
111.24
109.5
108.59
108.58
108.31
107.44
108.73
107.42
107.49
106.7
108.16
107.01
106.39
105.64
106.21
106.43
107.76
108.32
107.7
108.6
107.68
107.98
108.2
107.67
108.12
107.77
110.95
110.43
109.24
107.69
107.08
106.62
106.96
108.18
108.42
108.06
107.81
111.22
102.73
98.69
100.56
102.49
104.15
104.52
102.65
102.97
103.03
106.32
106.61
108.7
109.47
108.63
109.27
109.3
108.38
110.03
108.59
107.65
106.59
106.76
106.09
105.48
104.71
104.67
103.69
104.33
104.1
104.43
104.48
104.37
104.69
104.74
103.99
104.46
103.65
103.59
103.77
104.73
105.21
106.44
106.39
106.75
105.75
107.6
107.28
105.88
105.98
107.04
107.62
106.73
105.3
100.86
102.76
101.16
100.68
101.24
100.21
101.08
101.26
102.46
103.14
103.27
102.14
102.45
103.57
102.06
103.36
103.44
102.05
101.58
102.19
93.73
93.85
92.3
91.94
92.12
92.6
92.66
92.81
92.56
92.66
92.38
93.24
91.22
92.52
93.35
92.87
93.13
92.74
92.38
91.75
92.81
94.35
94.74
95.29
96.87
95.77
96.05
96.23
96.36
96.61
95.19
96.19
96.62
97.59
98.13
97.35
98.0
95.93
95.24
94.58
95.99
96.22
98.18
99.41
99.3
98.65
97.05
96.17
96.1
95.92
96.22
95.64
95.87
95.0
94.69
95.85
94.67
95.31
94.76
95.25
97.27
95.62
95.59
96.35
96.39
96.63
96.87
96.32
95.97
96.69
97.5
99.0
100.24
101.8
101.08
101.85
102.02
102.03
100.01
100.56
100.58
100.94
99.92
100.01
100.1
100.13
100.54
100.81
101.57
101.5
101.77
102.37
103.0
102.81
102.6
103.31
102.45
102.43
103.29
102.38
102.06
101.2
100.78
106.83
102.93
102.09
102.68
101.73
104.04
103.62
104.49
105.57
104.48
104.25
104.62
103.79
103.82
104.97
105.77
105.23
105.08
105.08
104.77
105.0
105.27
106.05
105.79
106.06
105.06
104.42
105.39
104.74
105.0
106.37
105.94
108.01
110.82
110.48
111.29
109.84
109.46
109.47
109.2
109.89
110.56
108.43
107.85
107.85
107.46
107.12
107.98
107.41
105.48
105.39
106.73
106.42
106.7
106.94
106.91
107.24
106.48
106.36
109.16
110.42
108.36
108.38
107.85
107.92
109.93
110.14
111.57
111.5
111.32
111.16
111.11
110.78
110.68
110.57
110.68
110.82
110.49
111.07
